Wavelength,PAN,BLUE,GREEN,RED,NIR
350,0.0000552409379682,0.0000027729023384,0.0000045585984844,0.0000014465575738,0.0000009950308090
351,0.0000575881813219,0.0000026089408528,0.0000036929348824,0.0000122233249475,0.0000008630490956
352,0.0000599365861024,0.0000024451169188,0.0000028272712804,0.0000229995153138,0.0000007310673822
353,0.0000622849908828,0.0000022812929849,0.0000019616076785,0.0000337768596949,0.0000005991009587
354,0.0000646333956632,0.0000021174690509,0.0000010959073491,0.0000445530500612,0.0000004671192453
355,0.0000669806390170,0.0000019535075653,0.0000002302315047,0.0000553303944423,0.0000003351375319
356,0.0000576021184423,0.0000018284731774,0.0000004165860705,0.0000751932974819,0.0000002934269070
357,0.0000482235978676,0.0000017034387895,0.0000006029406364,0.0000950562005216,0.0000002517009923
358,0.0000388450772929,0.0000015782668501,0.0000007892829597,0.0001149191035613,0.0000002099903674
359,0.0000294665567183,0.0000014532324622,0.0000009756375256,0.0001347773905417,0.0000001682797425
360,0.0000200880361436,0.0000013281568088,0.0000011619920914,0.0001546495256999,0.0000001265553568
361,0.0000196060440645,0.0000013401375516,0.0000009595509470,0.0001283726083043,0.0000002385517484
362,0.0000191252134122,0.0000013521045392,0.0000007571098025,0.0001020910748494,0.0000003505343792
363,0.0000186432213331,0.0000013640715268,0.0000005546686581,0.0000758141574538,0.0000004625322997
364,0.0000181612292540,0.0000013760660248,0.0000003522275137,0.0000495372400582,0.0000005745149305
365,0.0000176803986016,0.0000013880330124,0.0000001497863693,0.0000232591686477,0.0000006865128511
366,0.0000176083901465,0.0000014200825309,0.0000001958179793,0.0000211484755464,0.0000005492255707
367,0.0000175375431180,0.0000014519944979,0.0000002418495893,0.0000190377824451,0.0000004119382903
368,0.0000174666960895,0.0000014840440165,0.0000002878811993,0.0000169270893438,0.0000002746510099
369,0.0000173958490610,0.0000015160935351,0.0000003339128093,0.0000148163962425,0.0000001373637295
370,0.0000173238406058,0.0000015481430536,0.0000003799444193,0.0000127057031412,0.0000000000762427
371,0.0000156885518171,0.0000015133425034,0.0000004137580647,0.0000105607357998,0.0000000000764995
372,0.0000140521016016,0.0000014786795048,0.0000004475717101,0.0000084155376555,0.0000000000767564
373,0.0000124168128129,0.0000014438789546,0.0000004813853556,0.0000062703395112,0.0000000000770118
374,0.0000107811755961,0.0000014092159560,0.0000005151990010,0.0000041251413668,0.0000000000772686
375,0.0000091454222367,0.0000013744154058,0.0000005490004040,0.0000019798278210,0.0000000000775255
376,0.0000098174237233,0.0000013424759285,0.0000004920362866,0.0000018465391096,0.0000000000771371
377,0.0000104894252099,0.0000013105502063,0.0000004350599268,0.0000017131349967,0.0000000000767503
378,0.0000111613105539,0.0000012786107290,0.0000003780835670,0.0000015797308837,0.0000000000763619
379,0.0000118337766112,0.0000012466712517,0.0000003211194496,0.0000014464421723,0.0000000000759736
380,0.0000125050812418,0.0000012147455296,0.0000002641430897,0.0000013130380594,0.0000000000755867
381,0.0000115275083913,0.0000012842778542,0.0000002317618109,0.0000016318923535,0.0000000000765362
382,0.0000105498193981,0.0000013538101788,0.0000001993805321,0.0000019506312461,0.0000000000774857
383,0.0000095720142623,0.0000014233837689,0.0000001669870108,0.0000022694855402,0.0000000000784352
384,0.0000085942091265,0.0000014928473177,0.0000001346057319,0.0000025883398343,0.0000000000793847
385,0.0000076164039907,0.0000015624484182,0.0000001022183318,0.0000029071941284,0.0000000000803342
386,0.0000077888758551,0.0000014330123796,0.0000000831739774,0.0000111079696263,0.0000000000808327
387,0.0000079612315769,0.0000013037001376,0.0000000641296231,0.0000193089759273,0.0000000000813296
388,0.0000081335872986,0.0000011743466300,0.0000000450852687,0.0000275094052208,0.0000000000818265
389,0.0000083060591631,0.0000010449931224,0.0000000260409143,0.0000357098345143,0.0000000000823234
390,0.0000084784148848,0.0000009156533700,0.0000000069958253,0.0000439114178226,0.0000000000828204
391,0.0000092005900048,0.0000008937964237,0.0000000360638076,0.0000412871881275,0.0000000000826996
392,0.0000099226489820,0.0000008719394773,0.0000000651310554,0.0000386641124472,0.0000000000825773
393,0.0000106448241019,0.0000008500825309,0.0000000941995274,0.0000360398827521,0.0000000000824565
394,0.0000113669992218,0.0000008282255846,0.0000001232692237,0.0000334168070718,0.0000000000823341
395,0.0000120892904844,0.0000008063686382,0.0000001523327987,0.0000307925773767,0.0000000000822134
396,0.0000111740862475,0.0000009430674003,0.0000001218833784,0.0000307914233619,0.0000000000828234
397,0.0000102591142960,0.0000010797661623,0.0000000914302854,0.0000307891153322,0.0000000000834350
398,0.0000093441423445,0.0000012164511692,0.0000000609784166,0.0000307879613174,0.0000000000840451
399,0.0000084291703929,0.0000013531499312,0.0000000305253235,0.0000307868073026,0.0000000000846567
400,0.0000075141984414,0.0000014898211829,0.0000000000732882,0.0000307844992730,0.0000000000852667
401,0.0000072225641979,0.0000680426409904,0.0000000000735416,0.0000297481939668,0.0000000000856551
402,0.0000069309299544,0.0001345942228336,0.0000000000737950,0.0000287107346458,0.0000000000860435
403,0.0000066392957109,0.0002011416781293,0.0000000000740497,0.0000276732753249,0.0000000000864303
404,0.0000063476614673,0.0002677028885832,0.0000000000743031,0.0000266369700187,0.0000000000868186
405,0.0000060560272238,0.0003342503438790,0.0000000000745565,0.0000255995106977,0.0000000000872055
406,0.0000063383700538,0.0003338101788171,0.0000000317507927,0.0000230826043806,0.0000000000875923
407,0.0000066207128837,0.0003333562585970,0.0000000634269065,0.0000205668520784,0.0000000000879776
408,0.0000069029395710,0.0003329160935351,0.0000000951042445,0.0000180499457613,0.0000000000883629
409,0.0000071852824009,0.0003324621733150,0.0000001267828067,0.0000155330394442,0.0000000000887482
410,0.0000074676252308,0.0003320220082531,0.0000001584540235,0.0000130161331271,0.0000000000891335
411,0.0000081611131113,0.0003407015130674,0.0000001267828067,0.0000179530085166,0.0000000000895464
412,0.0000088546009919,0.0003493947730399,0.0000000951054687,0.0000228898839061,0.0000000000899576
413,0.0000095480888724,0.0003580880330124,0.0000000634293549,0.0000278267592956,0.0000000000903705
414,0.0000102415767529,0.0003667812929849,0.0000000317544654,0.0000327636346851,0.0000000000907833
415,0.0000109350646334,0.0003754745529574,0.0000000000782966,0.0000376993560597,0.0000000000911961
416,0.0000099040661549,0.0003891746905089,0.0000000107940453,0.0000314388256745,0.0000000000917894
417,0.0000088729515337,0.0004028610729023,0.0000000215099837,0.0000251771412745,0.0000000000923826
418,0.0000078418369125,0.0004165474552957,0.0000000322257997,0.0000189154568745,0.0000000000929759
419,0.0000068108384339,0.0004302475928473,0.0000000429416158,0.0000126549264893,0.0000000000935706
420,0.0000057797238127,0.0004439339752407,0.0000000536574318,0.0000063931266877,0.0000000000941639
421,0.0000075700630655,0.0004690646492435,0.0000000606882705,0.0000054272162855,0.0000000000946669
422,0.0000093604023182,0.0004941815680880,0.0000000677191092,0.0000044613058832,0.0000000000951715
423,0.0000111508577136,0.0005193122420908,0.0000000747499480,0.0000034955108824,0.0000000000956745
424,0.0000129406162530,0.0005444291609354,0.0000000817820109,0.0000025296004801,0.0000000000961791
425,0.0000147315362191,0.0005695460797799,0.0000000888128497,0.0000015636900778,0.0000000000966836
426,0.0000157663674057,0.0006011141678129,0.0000001366134936,0.0000078608027327,0.0000000000970063
427,0.0000168011985924,0.0006326685006878,0.0000001844202588,0.0000141574537817,0.0000000000973304
428,0.0000178360297790,0.0006642228335626,0.0000002322270240,0.0000204549126411,0.0000000000976545
429,0.0000188708609656,0.0006957771664374,0.0000002800337892,0.0000267523715005,0.0000000000979787
430,0.0000199056921522,0.0007273314993122,0.0000003278405543,0.0000330498303598,0.0000000000983028
431,0.0000442224828980,0.0008394360385144,0.0000002770956013,0.0000270985759457,0.0000000000985842
432,0.0000685392736437,0.0009515268225585,0.0000002263506482,0.0000211473215316,0.0000000000988655
433,0.0000928560643895,0.0010636313617607,0.0000001756056952,0.0000151960671175,0.0000000000991468
434,0.0001171763394153,0.0011757221458047,0.0000001248484997,0.0000092445819004,0.0000000000994282
435,0.0001414850001742,0.0012878266850069,0.0000000741059951,0.0000032933274863,0.0000000000997080
436,0.0002588239393271,0.0022303988995874,0.0000000941028121,0.0000028335679830,0.0000000001001024
437,0.0003761512642130,0.0031730398899587,0.0000001141008533,0.0000023738084797,0.0000000001004969
438,0.0004934902033658,0.0041156808803301,0.0000001341037915,0.0000019139335749,0.0000000001008914
439,0.0006108175282517,0.0050583218707015,0.0000001540957115,0.0000014541740716,0.0000000001012843
440,0.0007281448531376,0.0060009628610729,0.0000001740876315,0.0000009944261084,0.0000000001016788
441,0.0015016085759747,0.0124793672627235,0.0000001619431216,0.0000094569206269,0.0000006485788114
442,0.0022751187558797,0.0189573590096286,0.0000001497986117,0.0000179195420869,0.0000012970658838
443,0.0030486289357847,0.0254360385144429,0.0000001376541018,0.0000263819327440,0.0000019454765072
444,0.0038221391156897,0.0319147180192572,0.0000001255095920,0.0000348443234011,0.0000025940706084
445,0.0045956492955947,0.0383933975240715,0.0000001133614094,0.0000433067140582,0.0000032425118114
446,0.0372620527055435,0.0730866574965612,0.0000000907067566,0.0000346458328525,0.0000025940706084
447,0.0699283399728226,0.1077799174690510,0.0000000680521039,0.0000259837976320,0.0000019454765072
448,0.1025957886667980,0.1424759284731770,0.0000000453974511,0.0000173229164262,0.0000012970658838
449,0.1352597530806840,0.1771664374140300,0.0000000227440226,0.0000086614582131,0.0000006485788114
450,0.1679306860547500,0.2118569463548830,0.0000000000893699,0.0000000000815392,0.0000000001051267
451,0.2662454559180500,0.3060522696011000,0.0000567192683912,0.0000000000814573,0.0000003321407275
452,0.3645718400483150,0.4002475928473180,0.0001134373125375,0.0000000000813742,0.0000006641744262
453,0.4628866099116150,0.4944429160935350,0.0001701578051737,0.0000000000812911,0.0000009962234148
454,0.5612013797749150,0.5886382393397520,0.0002268770735649,0.0000000000812092,0.0000013282571136
455,0.6595277639051810,0.6828335625859700,0.0002835963419561,0.0000000000811261,0.0000016603213920
456,0.6724196002369310,0.7182118294360390,0.0002847961020041,0.0000000292969742,0.0000015137073223
457,0.6853114365686810,0.7535900962861070,0.0002859958620521,0.0000000585120133,0.0000013671085424
458,0.6982032729004310,0.7889546079779920,0.0002872078645495,0.0000000877282064,0.0000012205250524
459,0.7110951092321810,0.8243328748280610,0.0002884076245975,0.0000001169478616,0.0000010739262725
460,0.7239869455639310,0.8597111416781290,0.0002896073846455,0.0000001461559766,0.0000009273427824
461,0.7277499680607660,0.8629023383768910,0.0002895828997466,0.0000001169478616,0.0000007521214623
462,0.7315129905576010,0.8660797799174690,0.0002895584148476,0.0000000877282064,0.0000005768848524
463,0.7352760130544360,0.8692572214580470,0.0002895216874992,0.0000000585131673,0.0000004016635323
464,0.7390390355512710,0.8724484181568090,0.0002894972026003,0.0000000292981282,0.0000002264422121
465,0.7428020580481060,0.8756258596973870,0.0002894727177014,0.0000000000831987,0.0000000512147761
466,0.7466812232145970,0.8762173314993120,0.0002899624156801,0.0000000026920858,0.0000022601409721
467,0.7505487741141220,0.8768088033012380,0.0002904398712094,0.0000000053009671,0.0000044692139504
468,0.7544163250136470,0.8773865199449790,0.0002909295691882,0.0000000079097330,0.0000066781340305
469,0.7582954901801370,0.8779779917469050,0.0002914070247175,0.0000000105186143,0.0000088870541107
470,0.7621630410796620,0.8785694635488310,0.0002918967226963,0.0000000131280726,0.0000110961270890
471,0.7633244677762160,0.8822696011004130,0.0002957041244812,0.0000000105183835,0.0000090104429460
472,0.7644742802058050,0.8859697386519950,0.0002995115262662,0.0000000079092714,0.0000069247588031
473,0.7656240926353930,0.8896836313617610,0.0003033189280511,0.0000000053001593,0.0000048390746602
474,0.7667855193319470,0.8933837689133430,0.0003071263298361,0.0000000026910472,0.0000027533905173
475,0.7679353317615360,0.8970839064649240,0.0003109214891716,0.0000000000819247,0.0000006676757947
476,0.7619075272064200,0.9008665749656120,0.0003167733800179,0.0000000075919173,0.0000015410608076
477,0.7558681083843390,0.9046354883081160,0.0003226375133137,0.0000000151014379,0.0000024144152409
478,0.7498286895622580,0.9084044016506190,0.0003284894041600,0.0000000226117663,0.0000032876167760
479,0.7438008850071430,0.9121870701513070,0.0003343412950063,0.0000000301220948,0.0000041609712093
480,0.7377614661850620,0.9159559834938100,0.0003401931858526,0.0000000376312692,0.0000050343256426
481,0.7390854926191330,0.9179367262723520,0.0003416867646879,0.0000000762676853,0.0000047373973671
482,0.7403979047862390,0.9199174690508940,0.0003431925859726,0.0000001149029474,0.0000044403161934
483,0.7417219312203110,0.9218982118294360,0.0003446861648079,0.0000001535416715,0.0000041432350198
484,0.7430343433874170,0.9238789546079780,0.0003461919860926,0.0000001921780876,0.0000038463067443
485,0.7443467555545230,0.9258596973865200,0.0003476978073773,0.0000002308029635,0.0000035492255707
486,0.7404327475871360,0.9286382393397530,0.0003602218331844,0.0000005000461606,0.0000094140941547
487,0.7365071253527830,0.9314167812929850,0.0003727458589915,0.0000007692778175,0.0000152789627387
488,0.7325815031184310,0.9341953232462170,0.0003852821272480,0.0000010385094745,0.0000211442900173
489,0.7286558808840780,0.9369601100412660,0.0003978061530551,0.0000013077295912,0.0000270094643977
490,0.7247418729166910,0.9397386519944980,0.0004103424213117,0.0000015769612482,0.0000328731097962
491,0.7325582745845000,0.9404814305364510,0.0004307750694759,0.0000019958686270,0.0000263611760928
492,0.7403862905192740,0.9412379642365890,0.0004512199600896,0.0000024147760057,0.0000198477134076
493,0.7482026921870820,0.9419807427785420,0.0004716526082539,0.0000028335679830,0.0000133340978243
494,0.7560307081218570,0.9427235213204950,0.0004920974988676,0.0000032524753618,0.0000068207880372
495,0.7638471097896660,0.9434662998624480,0.0005125301470318,0.0000036713827406,0.0000003076005688
496,0.7614777993286950,0.9498624484181570,0.0007328330252317,0.0000030582546680,0.0000002821277311
497,0.7591201031346910,0.9562585969738650,0.0009531481458810,0.0000024451265954,0.0000002566396037
498,0.7567507926737200,0.9626547455295740,0.0011734510240809,0.0000018321139243,0.0000002311514762
499,0.7543814822127500,0.9690508940852820,0.0013938028720787,0.0000012189858518,0.0000002056633488
500,0.7520237860187450,0.9754470426409900,0.0016140445380312,0.0000006058923997,0.0000001801752213
501,0.7637077385860790,0.9803576341127920,0.0056669074348396,0.0000006268146883,0.0000001628518569
502,0.7754033054203780,0.9852682255845940,0.0097196479071533,0.0000006477485171,0.0000001455223766
503,0.7870872579877120,0.9901788170563960,0.0137727556529510,0.0000006686708057,0.0000001281959543
504,0.7987828248220110,0.9950894085281980,0.0178250064272860,0.0000006896046345,0.0000001108695320
505,0.8104667773893450,1.0000000000000000,0.0218784814465678,0.0000007105269232,0.0000000935431096
506,0.8143691710897670,0.9947180192572210,0.0583964839685124,0.0000006097237289,0.0000001037628243
507,0.8182599505232230,0.9894222833562590,0.0949157107354039,0.0000005089320747,0.0000001139825390
508,0.8221507299566790,0.9841403026134800,0.1314349375022950,0.0000004081288804,0.0000001242007247
509,0.8260531236571000,0.9788445667125170,0.1679541642691870,0.0000003073372262,0.0000001344204394
510,0.8299439030905560,0.9735625859697390,0.2044733910360790,0.0000002065340319,0.0000001446386251
511,0.8200020905680540,0.8675515818431910,0.3159531359034320,0.0000002269023934,0.0000001527896274
512,0.8100602780455510,0.7615543328748280,0.4274328807707850,0.0000002472707550,0.0000001609406296
513,0.8001184655230480,0.6555433287482810,0.5389126256381380,0.0000002676275763,0.0000001690901029
514,0.7901766530005460,0.5495460797799170,0.6503923705054910,0.0000002879959379,0.0000001772395762
515,0.7802464547450090,0.4435350756533700,0.7618721153728440,0.0000003083642994,0.0000001853890494
516,0.7874821430645400,0.3710591471801930,0.7805785781619190,0.0000003164539433,0.0000001854807883
517,0.7947178313840720,0.2985832187070150,0.7992727985015240,0.0000003245435871,0.0000001855878171
518,0.8019651339705690,0.2261072902338380,0.8179670188411300,0.0000003326332310,0.0000001856795560
519,0.8092008222901010,0.1536313617606600,0.8366612391807350,0.0000003407228749,0.0000001857865847
520,0.8164365106096330,0.0811595598349381,0.8553554595203410,0.0000003488125188,0.0000001858783236
521,0.8258672953856520,0.0675048143053645,0.8578774041110150,0.0000004141182173,0.0000002668379126
522,0.8352864658947050,0.0538486932599725,0.8603993487016880,0.0000004794354560,0.0000003478127915
523,0.8447056364037580,0.0401939477303989,0.8629212932923620,0.0000005447411545,0.0000004287723805
524,0.8541248069128120,0.0265392022008253,0.8654309954335660,0.0000006100468530,0.0000005097319695
525,0.8635555916888310,0.0128836313617607,0.8679529400242400,0.0000006753640917,0.0000005906915585
526,0.8573303445953010,0.0110013755158184,0.8734497998359510,0.0000007084843169,0.0000006109658578
527,0.8511167117687370,0.0091192572214581,0.8789589020971320,0.0000007416160824,0.0000006312401572
528,0.8448914646752070,0.0072371389270977,0.8844557619088430,0.0000007747478478,0.0000006515144565
529,0.8386662175816770,0.0053550206327373,0.8899526217205540,0.0000008078680730,0.0000006717734660
530,0.8324525847551130,0.0034729023383769,0.8954617239817340,0.0000008409998384,0.0000006920477654
531,0.8407335571015430,0.0030456671251719,0.8954739664312040,0.0000008617028643,0.0000007325963641
532,0.8490145294479740,0.0026184319119670,0.8954862088806730,0.0000008824174302,0.0000007731602526
533,0.8572955017944040,0.0021911966987620,0.8954984513301420,0.0000009031204561,0.0000008137088513
534,0.8655764741408340,0.0017639614855571,0.8955106937796110,0.0000009238350220,0.0000008542574500
535,0.8738574464872650,0.0013367262723521,0.8955229362290810,0.0000009445380479,0.0000008948060487
536,0.8711048652164320,0.0012238789546080,0.8956086333753660,0.0000009203383571,0.0000007956668654
537,0.8683522839455990,0.0011110178817056,0.8957065729711200,0.0000008961271263,0.0000006965123924
538,0.8655997026747660,0.0009981705639615,0.8957922701174050,0.0000008719274355,0.0000005973579194
539,0.8628471214039330,0.0008853232462173,0.8958902097131600,0.0000008477277448,0.0000004982034463
540,0.8600945401330990,0.0007724621733150,0.8959759068594440,0.0000008235165140,0.0000003990642631
541,0.8523942811349460,0.0007398349381018,0.8976531224367370,0.0000008289057631,0.0000004111432197
542,0.8446940221367930,0.0007071939477304,0.8993303380140300,0.0000008342950123,0.0000004232374662
543,0.8369937631386390,0.0006745667125172,0.9010075535913230,0.0000008396727214,0.0000004353164228
544,0.8293051184074520,0.0006419394773040,0.9026847691686150,0.0000008450619706,0.0000004474106692
545,0.8216048594092980,0.0006092984869326,0.9043619847459080,0.0000008504396796,0.0000004595049157
546,0.8290031474663480,0.0004990096286107,0.9038845292166060,0.0000009081750410,0.0000006304756663
547,0.8364130497903620,0.0003887207702889,0.9034070736873030,0.0000009659104023,0.0000008014617066
548,0.8438229521143770,0.0002784319119670,0.9029418606074710,0.0000010236457636,0.0000009724477470
549,0.8512328544383920,0.0001681430536451,0.9024644050781680,0.0000010813811249,0.0000011434184976
550,0.8586427567624070,0.0000578514442916,0.9019869495488660,0.0000011391164863,0.0000013144045380
