Wavelength,Panchromatic,Blue,Green,Red,NIR1,Coastal,Yellow,Red Edge,NIR2
350,5.53407E-06,7.50E-07,4.16E-07,3.12E-07,3.42E-07,1.94E-06,3.12E-07,1.32E-07,2.75E-07
351,5.8023E-06,5.37E-07,3.55E-07,2.20E-07,1.72E-07,2.47E-06,1.96E-07,1.68E-07,1.04E-06
352,6.07353E-06,3.24E-07,2.93E-07,1.27E-07,7.23E-12,3.00E-06,7.91E-08,2.04E-07,1.82E-06
353,6.30596E-06,4.06E-07,2.27E-07,1.16E-07,1.15E-08,3.67E-06,8.66E-08,1.72E-07,1.21E-05
354,6.5498E-06,4.88E-07,1.62E-07,1.05E-07,2.31E-08,4.34E-06,9.42E-08,1.40E-07,2.24E-05
355,6.77586E-06,3.04E-07,1.32E-07,6.94E-08,2.43E-08,3.27E-06,9.83E-08,2.82E-07,1.99E-05
356,5.81668E-06,1.23E-07,1.03E-07,3.43E-08,2.56E-08,2.18E-06,1.02E-07,4.22E-07,1.74E-05
357,4.93228E-06,1.87E-07,1.36E-07,3.80E-08,4.98E-08,2.58E-06,9.13E-08,2.87E-07,6.36E-05
358,4.02254E-06,2.53E-07,1.72E-07,4.17E-08,7.48E-08,2.99E-06,7.97E-08,1.47E-07,0.000111139
359,3.13309E-06,2.74E-07,1.68E-07,6.08E-08,8.04E-08,2.38E-06,6.39E-08,1.60E-07,9.35E-05
360,2.18462E-06,2.95E-07,1.65E-07,8.08E-08,8.60E-08,1.75E-06,4.72E-08,1.71E-07,7.48E-05
361,2.23384E-06,2.04E-07,1.30E-07,5.42E-08,4.50E-08,2.48E-06,3.97E-08,1.46E-07,4.23E-05
362,2.27885E-06,1.02E-07,9.06E-08,2.51E-08,7.74E-12,3.27E-06,3.13E-08,1.17E-07,6.51E-06
363,2.43744E-06,1.72E-07,1.09E-07,5.58E-08,1.31E-08,3.42E-06,4.58E-08,9.43E-08,3.81E-06
364,2.57004E-06,2.52E-07,1.29E-07,9.15E-08,2.85E-08,3.58E-06,6.25E-08,6.57E-08,5.42E-07
365,2.74394E-06,2.46E-07,1.50E-07,9.27E-08,4.98E-08,3.56E-06,6.13E-08,1.13E-07,4.81E-07
366,2.98502E-06,2.36E-07,1.73E-07,9.24E-08,7.44E-08,3.48E-06,5.88E-08,1.67E-07,3.98E-07
367,3.23318E-06,2.82E-07,1.92E-07,1.05E-07,8.65E-08,4.07E-06,9.13E-08,1.89E-07,5.43E-07
368,3.4792E-06,3.33E-07,2.12E-07,1.19E-07,9.96E-08,4.71E-06,1.28E-07,2.12E-07,7.06E-07
369,3.8153E-06,3.82E-07,2.47E-07,1.57E-07,7.99E-08,3.93E-06,1.08E-07,2.03E-07,5.21E-07
370,4.12548E-06,4.35E-07,2.85E-07,2.00E-07,5.52E-08,2.94E-06,8.19E-08,1.90E-07,2.89E-07
371,4.03938E-06,4.45E-07,2.64E-07,1.63E-07,3.26E-08,4.49E-06,8.00E-08,2.19E-07,2.19E-07
372,3.89215E-06,4.51E-07,2.37E-07,1.17E-07,5.99E-09,6.22E-06,7.68E-08,2.50E-07,1.35E-07
373,3.64141E-06,4.59E-07,2.78E-07,1.34E-07,2.91E-08,6.21E-06,8.69E-08,2.34E-07,1.33E-07
374,3.33214E-06,4.65E-07,3.22E-07,1.53E-07,5.47E-08,6.15E-06,9.80E-08,2.15E-07,1.30E-07
375,2.97253E-06,4.10E-07,2.49E-07,1.38E-07,2.87E-08,5.37E-06,8.44E-08,1.76E-07,1.61E-07
376,3.34988E-06,3.47E-07,1.67E-07,1.20E-07,2.19E-11,4.47E-06,6.91E-08,1.32E-07,1.94E-07
377,3.69746E-06,4.26E-07,2.77E-07,1.52E-07,1.78E-08,4.83E-06,7.76E-08,1.72E-07,2.43E-07
378,4.06077E-06,5.10E-07,3.95E-07,1.86E-07,3.68E-08,5.18E-06,8.61E-08,2.14E-07,2.95E-07
379,4.48983E-06,4.72E-07,3.86E-07,1.74E-07,3.28E-08,6.27E-06,8.10E-08,2.39E-07,2.22E-07
380,4.9452E-06,4.31E-07,3.76E-07,1.62E-07,2.83E-08,7.42E-06,7.48E-08,2.65E-07,1.41E-07
381,4.67966E-06,3.67E-07,2.80E-07,1.21E-07,1.46E-08,9.02E-06,7.13E-08,2.46E-07,1.73E-07
382,4.40113E-06,2.98E-07,1.77E-07,7.65E-08,2.75E-11,1.07E-05,6.75E-08,2.26E-07,2.05E-07
383,4.06894E-06,3.45E-07,2.56E-07,1.20E-07,7.62E-09,1.63E-05,5.28E-08,2.89E-07,1.83E-07
384,3.72176E-06,3.92E-07,3.38E-07,1.65E-07,1.55E-08,2.20E-05,3.77E-08,3.54E-07,1.60E-07
385,3.35741E-06,5.15E-07,4.25E-07,2.37E-07,3.07E-08,4.54E-05,7.12E-08,3.40E-07,2.10E-07
386,3.49389E-06,6.42E-07,5.15E-07,3.11E-07,4.64E-08,6.96E-05,1.06E-07,3.26E-07,2.60E-07
387,3.60654E-06,6.07E-07,4.80E-07,3.04E-07,4.58E-08,0.000138061,2.23E-07,3.45E-07,2.43E-07
388,3.72629E-06,5.71E-07,4.44E-07,2.96E-07,4.52E-08,0.000208076,3.43E-07,3.65E-07,2.26E-07
389,3.8687E-06,6.47E-07,4.32E-07,3.26E-07,7.47E-08,0.000418003,4.70E-07,5.60E-07,2.32E-07
390,4.01401E-06,7.24E-07,4.19E-07,3.57E-07,1.05E-07,0.000634651,6.01E-07,7.60E-07,2.37E-07
391,4.41029E-06,6.28E-07,4.10E-07,2.56E-07,5.32E-08,0.001257735,5.61E-06,1.56E-06,2.36E-07
392,4.81547E-06,5.29E-07,4.01E-07,1.53E-07,3.41E-11,0.001896352,1.08E-05,2.37E-06,2.36E-07
393,5.20647E-06,5.10E-07,3.64E-07,1.93E-07,2.44E-09,0.004933615,3.14E-05,2.14E-06,2.59E-07
394,5.59678E-06,4.92E-07,3.27E-07,2.35E-07,4.89E-09,0.008012588,5.23E-05,1.92E-06,2.82E-07
395,6.02754E-06,5.83E-07,3.70E-07,2.51E-07,8.25E-09,0.027428402,2.73E-05,1.30E-06,2.25E-07
396,5.65167E-06,6.78E-07,4.13E-07,2.68E-07,1.17E-08,0.047372325,1.53E-06,6.66E-07,1.67E-07
397,5.24228E-06,7.18E-07,4.73E-07,3.42E-07,3.74E-08,0.10399993,8.13E-07,1.08E-06,1.90E-07
398,4.82929E-06,7.59E-07,5.33E-07,4.18E-07,6.38E-08,0.16180598,8.81E-08,1.51E-06,2.13E-07
399,4.39431E-06,1.77E-06,4.88E-07,3.57E-07,1.21E-07,0.25805136,4.99E-08,1.76E-06,2.14E-07
400,3.95097E-06,2.80E-06,4.43E-07,2.95E-07,1.79E-07,0.35598837,1.06E-08,2.02E-06,2.14E-07
401,3.81699E-06,2.65E-06,4.66E-07,2.98E-07,9.01E-08,0.45902775,4.49E-08,1.44E-06,1.79E-07
402,3.68155E-06,2.50E-06,4.88E-07,3.01E-07,3.81E-11,0.56306531,7.91E-08,8.59E-07,1.41E-07
403,3.54273E-06,2.30E-06,4.82E-07,3.01E-07,5.49E-08,0.6220937,5.99E-08,1.42E-06,1.43E-07
404,3.40261E-06,2.12E-06,4.76E-07,3.00E-07,1.10E-07,0.68161875,4.04E-08,1.98E-06,1.45E-07
405,3.26677E-06,1.65E-06,4.95E-07,2.87E-07,1.04E-07,0.70071904,3.13E-08,1.64E-06,1.78E-07
406,3.45075E-06,1.19E-06,5.15E-07,2.74E-07,9.83E-08,0.7200551,2.22E-08,1.30E-06,2.11E-07
407,3.63395E-06,1.07E-06,5.01E-07,3.37E-07,9.77E-08,0.73305532,8.03E-08,1.10E-06,2.24E-07
408,3.81991E-06,9.57E-07,4.87E-07,4.02E-07,9.65E-08,0.74619441,1.39E-07,8.96E-07,2.36E-07
409,4.00582E-06,1.76E-06,5.04E-07,4.08E-07,9.64E-08,0.75571345,1.57E-07,9.40E-07,3.20E-07
410,4.18733E-06,2.57E-06,5.21E-07,4.14E-07,9.63E-08,0.7653071,1.75E-07,9.78E-07,4.05E-07
411,4.58736E-06,3.87E-06,4.60E-07,3.90E-07,1.39E-07,0.77339758,1.88E-07,1.05E-06,3.11E-07
412,4.98244E-06,5.18E-06,3.98E-07,3.65E-07,1.81E-07,0.78151302,2.01E-07,1.13E-06,2.19E-07
413,5.41812E-06,7.13E-06,3.82E-07,3.55E-07,1.70E-07,0.79417047,1.84E-07,9.97E-07,2.13E-07
414,5.86029E-06,9.12E-06,3.66E-07,3.45E-07,1.58E-07,0.80695129,1.67E-07,8.66E-07,2.08E-07
415,6.2917E-06,1.35E-05,3.59E-07,6.23E-07,8.63E-08,0.817088,1.35E-07,8.77E-07,1.58E-07
416,5.727E-06,1.79E-05,3.52E-07,9.05E-07,1.42E-08,0.82729741,1.02E-07,8.88E-07,1.07E-07
417,5.14325E-06,2.43E-05,4.69E-07,6.86E-07,5.04E-08,0.83488083,1.62E-07,1.61E-06,1.35E-07
418,4.5563E-06,3.08E-05,5.86E-07,4.61E-07,8.65E-08,0.84249414,2.23E-07,2.34E-06,1.65E-07
419,3.97541E-06,3.60E-05,4.62E-07,3.73E-07,9.06E-08,0.85210484,2.13E-07,1.74E-06,1.19E-07
420,3.39534E-06,4.12E-05,3.38E-07,2.85E-07,9.41E-08,0.86178001,2.02E-07,1.15E-06,7.18E-08
421,4.46145E-06,4.55E-05,4.27E-07,3.03E-07,7.26E-08,0.8703355,1.94E-07,1.09E-06,1.16E-07
422,5.53521E-06,4.98E-05,5.18E-07,3.22E-07,5.06E-08,0.87893544,1.87E-07,1.02E-06,1.61E-07
423,6.62152E-06,5.33E-05,4.59E-07,2.90E-07,5.24E-08,0.88808986,3.36E-07,7.41E-07,2.16E-07
424,7.68939E-06,5.69E-05,3.99E-07,2.58E-07,5.42E-08,0.89729882,4.86E-07,4.53E-07,2.71E-07
425,8.8389E-06,7.01E-05,3.74E-07,2.85E-07,1.02E-07,0.90505522,3.33E-07,7.41E-07,2.30E-07
426,9.50942E-06,8.33E-05,3.49E-07,3.11E-07,1.50E-07,0.91285463,1.80E-07,1.04E-06,1.89E-07
427,1.01648E-05,0.000116584,3.62E-07,2.86E-07,1.45E-07,0.91566507,2.14E-07,1.03E-06,1.72E-07
428,1.08234E-05,0.000149952,3.76E-07,2.60E-07,1.40E-07,0.91847884,2.49E-07,1.02E-06,1.56E-07
429,1.14443E-05,0.00024321,3.48E-07,2.88E-07,1.11E-07,0.92283931,2.54E-07,5.33E-06,1.42E-07
430,1.21421E-05,0.000337419,3.21E-07,3.15E-07,8.09E-08,0.92720806,2.58E-07,9.68E-06,1.28E-07
431,2.71874E-05,0.000548681,3.45E-07,3.39E-07,1.56E-07,0.9355417,3.22E-07,3.78E-05,1.74E-07
432,4.23092E-05,0.00076202,3.69E-07,3.63E-07,2.32E-07,0.94392361,3.87E-07,6.63E-05,2.22E-07
433,5.74884E-05,0.001153833,4.61E-07,2.89E-07,2.02E-07,0.9513918,3.78E-07,3.55E-05,1.73E-07
434,7.27306E-05,0.001547273,5.54E-07,2.15E-07,1.73E-07,0.95888196,3.69E-07,4.63E-06,1.24E-07
435,8.81089E-05,0.00227712,4.62E-07,1.62E-07,1.04E-07,0.96508815,4.30E-07,2.51E-06,1.14E-07
436,0.00016152,0.003011193,3.69E-07,1.09E-07,3.43E-08,0.97131689,4.90E-07,3.73E-07,1.03E-07
437,0.000235239,0.004623103,3.20E-07,1.65E-07,7.30E-08,0.97663674,4.31E-07,3.57E-07,5.51E-07
438,0.000309311,0.006242716,2.71E-07,2.22E-07,1.12E-07,0.98197142,3.72E-07,3.40E-07,1.00E-06
439,0.000384329,0.01298592,2.22E-07,2.50E-07,8.48E-07,0.98395,6.99E-07,5.84E-07,1.09E-06
440,0.000459932,0.019782129,1.75E-07,2.79E-07,1.60E-06,0.98592107,1.03E-06,8.32E-07,1.19E-06
441,0.000951303,0.038890946,2.25E-07,1.98E-07,4.78E-06,0.98662833,3.13E-06,1.55E-05,6.70E-07
442,0.001453054,0.058201572,2.78E-07,1.15E-07,8.01E-06,0.98730112,5.26E-06,3.02E-05,1.48E-07
443,0.001944606,0.10544424,3.77E-07,2.76E-07,4.23E-06,0.99088697,4.75E-06,1.76E-05,1.48E-07
444,0.002444713,0.15279567,4.75E-07,4.36E-07,4.52E-07,0.99447355,4.24E-06,4.93E-06,1.48E-07
445,0.002951471,0.2452001,5.34E-07,3.78E-07,3.69E-07,0.99723579,3.23E-06,2.59E-06,2.13E-07
446,0.023997017,0.33816011,5.93E-07,3.20E-07,2.85E-07,1,2.21E-06,2.30E-07,2.78E-07
447,0.045203756,0.44793846,4.36E-07,2.53E-07,1.57E-07,0.98313502,1.53E-06,2.32E-07,1.35E-06
448,0.066597859,0.55868039,2.78E-07,1.86E-07,2.78E-08,0.96609091,8.43E-07,2.35E-07,2.44E-06
449,0.08765155,0.6296967,4.22E-07,2.50E-07,2.04E-07,0.91012272,6.93E-07,2.17E-07,1.83E-06
450,0.1097664,0.70097007,5.66E-07,3.14E-07,3.81E-07,0.85393995,5.38E-07,1.98E-07,1.22E-06
451,0.17362635,0.72655887,6.15E-07,2.94E-07,3.12E-07,0.75346182,4.29E-07,2.66E-07,1.01E-06
452,0.23844389,0.75222197,6.63E-07,2.74E-07,2.42E-07,0.65266381,3.19E-07,3.34E-07,7.93E-07
453,0.30424356,0.76298708,5.46E-07,2.72E-07,2.87E-07,0.52339927,3.70E-07,2.37E-07,8.64E-07
454,0.36981445,0.77382175,4.27E-07,2.70E-07,3.33E-07,0.3930513,4.23E-07,1.40E-07,9.35E-07
455,0.4361629,0.77825492,4.58E-07,3.05E-07,3.27E-07,0.28157711,3.93E-07,1.28E-07,5.67E-07
456,0.44590289,0.78270319,4.88E-07,3.41E-07,3.22E-07,0.16944902,3.63E-07,1.15E-07,1.95E-07
457,0.45648778,0.78664791,5.06E-07,2.47E-07,2.78E-07,0.11034867,3.53E-07,1.54E-07,1.69E-07
458,0.46715647,0.79060387,5.23E-07,1.53E-07,2.33E-07,0.050694291,3.42E-07,1.93E-07,1.43E-07
459,0.47731439,0.79529316,1.41E-06,1.00E-06,2.61E-07,0.029890841,5.33E-07,1.87E-07,9.10E-08
460,0.48753262,0.80000019,2.31E-06,1.87E-06,2.87E-07,0.008946148,7.26E-07,1.82E-07,3.90E-08
461,0.49053198,0.80013379,3.11E-06,3.08E-06,3.42E-07,0.005276111,7.21E-07,1.67E-07,1.95E-08
462,0.49274231,0.80025873,3.92E-06,4.28E-06,3.97E-07,0.001608012,7.17E-07,1.52E-07,1.11E-10
463,0.49696981,0.80321533,4.93E-06,2.60E-06,3.71E-07,0.001058128,5.64E-07,1.55E-07,1.22E-07
464,0.50121865,0.80617695,5.95E-06,9.13E-07,3.45E-07,0.000504038,4.08E-07,1.57E-07,2.44E-07
465,0.50499219,0.80985937,8.51E-06,7.96E-07,5.22E-07,0.0003609,5.09E-07,1.63E-07,4.14E-07
466,0.50798146,0.81354518,1.11E-05,6.85E-07,6.99E-07,0.000217405,6.09E-07,1.69E-07,5.85E-07
467,0.51252991,0.81855486,1.22E-05,6.46E-07,6.43E-07,0.0001696,5.35E-07,1.24E-07,3.01E-07
468,0.51790002,0.82358504,1.34E-05,6.06E-07,5.86E-07,0.000121184,4.59E-07,7.82E-08,1.45E-08
469,0.52174041,0.82481692,1.37E-05,8.94E-07,4.81E-07,9.63E-05,4.47E-07,1.14E-07,1.15E-08
470,0.52559558,0.82604517,1.41E-05,1.18E-06,3.76E-07,7.12E-05,4.33E-07,1.49E-07,8.46E-09
471,0.52700397,0.82754809,1.44E-05,2.03E-06,3.75E-07,5.86E-05,5.57E-07,3.26E-07,4.29E-09
472,0.52841203,0.82904884,1.48E-05,2.87E-06,3.74E-07,4.62E-05,6.82E-07,5.03E-07,1.12E-10
473,0.53076677,0.83280034,1.70E-05,1.93E-06,3.86E-07,2.99E-05,6.74E-07,5.93E-07,1.89E-06
474,0.53312805,0.83656242,1.92E-05,9.92E-07,4.00E-07,1.36E-05,6.66E-07,6.85E-07,3.79E-06
475,0.53558258,0.84226233,1.98E-05,9.55E-07,7.36E-07,1.15E-05,7.06E-07,7.84E-07,3.68E-06
476,0.53316776,0.84798489,2.03E-05,9.25E-07,1.08E-06,9.44E-06,7.45E-07,8.81E-07,3.57E-06
477,0.53090169,0.85778186,2.09E-05,9.28E-07,1.28E-06,9.54E-06,7.12E-07,1.40E-06,1.96E-06
478,0.52861085,0.86763035,2.15E-05,9.23E-07,1.48E-06,9.64E-06,6.78E-07,1.91E-06,3.40E-07
479,0.52502256,0.87304712,2.20E-05,7.41E-07,1.04E-06,7.40E-06,6.93E-07,1.38E-06,2.77E-07
480,0.52223283,0.87848171,2.26E-05,5.62E-07,6.08E-07,5.14E-06,7.07E-07,8.51E-07,2.15E-07
481,0.52394779,0.8779204,2.36E-05,9.05E-07,5.70E-07,8.17E-06,7.12E-07,2.24E-06,1.38E-07
482,0.52566474,0.87735069,2.46E-05,1.24E-06,5.32E-07,1.12E-05,7.17E-07,3.63E-06,6.01E-08
483,0.52875017,0.87653504,2.86E-05,1.45E-06,1.36E-06,1.12E-05,6.36E-07,7.93E-06,1.42E-07
484,0.53101629,0.87570434,3.26E-05,1.65E-06,2.19E-06,1.11E-05,5.54E-07,1.22E-05,2.24E-07
485,0.53366042,0.878267,3.56E-05,1.28E-06,1.60E-06,1.10E-05,6.98E-07,1.38E-05,6.80E-07
486,0.53297164,0.88083162,3.88E-05,9.09E-07,1.01E-06,1.09E-05,8.43E-07,1.54E-05,1.14E-06
487,0.52978183,0.88535358,4.19E-05,1.21E-06,7.14E-07,1.08E-05,7.10E-07,1.04E-05,9.56E-07
488,0.52742213,0.88987152,4.51E-05,1.51E-06,4.24E-07,1.08E-05,5.77E-07,5.42E-06,7.71E-07
489,0.52484215,0.89871377,5.57E-05,2.23E-06,4.48E-07,9.92E-06,6.53E-07,4.66E-06,4.03E-07
490,0.52308945,0.90757579,6.64E-05,2.95E-06,4.73E-07,9.09E-06,7.30E-07,3.88E-06,3.20E-08
491,0.53106382,0.91739735,8.94E-05,2.36E-06,5.38E-07,9.07E-06,6.54E-07,3.18E-06,1.63E-07
492,0.53824418,0.92727543,0.000112383,1.76E-06,6.04E-07,9.07E-06,5.78E-07,2.48E-06,2.95E-07
493,0.54397883,0.93384345,0.000175309,1.97E-06,5.23E-07,1.11E-05,5.49E-07,8.91E-06,2.17E-07
494,0.54970428,0.9403979,0.00023819,2.17E-06,4.41E-07,1.32E-05,5.20E-07,1.54E-05,1.38E-07
495,0.55727957,0.95019152,0.000396291,2.88E-06,3.36E-07,1.17E-05,3.37E-07,1.53E-05,1.35E-07
496,0.55724732,0.96003056,0.000555332,3.60E-06,2.30E-07,1.02E-05,1.54E-07,1.54E-05,1.33E-07
497,0.55786546,0.97118818,0.000941204,2.65E-06,1.91E-07,7.68E-06,3.50E-07,1.18E-05,6.68E-08
498,0.55847423,0.98241368,0.001330275,1.68E-06,1.50E-07,5.09E-06,5.47E-07,8.09E-06,1.26E-10
499,0.55835691,0.9911881,0.002208565,1.61E-06,2.33E-07,3.20E-06,3.61E-07,4.66E-06,3.68E-07
500,0.55823167,1,0.003091864,1.54E-06,3.18E-07,1.31E-06,1.75E-07,1.20E-06,7.36E-07
501,0.56700883,0.99661277,0.005402169,2.06E-06,2.26E-07,1.41E-06,2.78E-07,8.66E-07,9.19E-07
502,0.57578699,0.99321665,0.007713745,2.57E-06,1.33E-07,1.52E-06,3.81E-07,5.28E-07,1.10E-06
503,0.58601029,0.96466338,0.014494754,1.97E-06,1.50E-07,1.23E-06,2.46E-07,2.56E-06,5.70E-07
504,0.59628266,0.93594168,0.021312825,1.36E-06,1.66E-07,9.45E-07,1.12E-07,4.61E-06,3.45E-08
505,0.60553326,0.85577938,0.040519839,8.29E-07,2.50E-07,8.63E-07,2.23E-07,4.22E-06,2.66E-08
506,0.60871959,0.77545767,0.059763601,2.95E-07,3.33E-07,7.78E-07,3.35E-07,3.84E-06,1.84E-08
507,0.61399523,0.65464145,0.10901705,2.52E-07,3.75E-07,6.73E-07,2.62E-07,2.24E-06,6.00E-08
508,0.61842021,0.53310461,0.1585592,2.09E-07,4.18E-07,5.66E-07,1.90E-07,6.26E-07,1.02E-07
509,0.62216319,0.41558092,0.25486166,2.55E-07,3.17E-07,6.34E-07,1.78E-07,4.14E-07,1.54E-07
510,0.62679189,0.29762947,0.35151038,3.01E-07,2.16E-07,7.02E-07,1.67E-07,2.01E-07,2.06E-07
511,0.62121182,0.22145089,0.46254831,2.79E-07,3.11E-07,8.01E-07,1.67E-07,1.86E-07,2.74E-07
512,0.6155771,0.14469861,0.57440609,2.56E-07,4.07E-07,9.01E-07,1.66E-07,1.70E-07,3.45E-07
513,0.60865882,0.1066236,0.63767104,2.17E-07,2.68E-07,8.74E-07,1.55E-07,1.92E-07,3.93E-07
514,0.6008495,0.068529709,0.70096184,1.79E-07,1.29E-07,8.49E-07,1.43E-07,2.12E-07,4.43E-07
515,0.59541384,0.050368437,0.72300742,2.45E-07,2.90E-07,9.39E-07,1.36E-07,1.28E-07,8.02E-07
516,0.60237964,0.032106602,0.74516569,3.11E-07,4.51E-07,1.03E-06,1.28E-07,4.30E-08,1.16E-06
517,0.60849748,0.022842873,0.75506552,2.59E-07,4.04E-07,1.09E-06,2.29E-07,8.29E-08,9.81E-07
518,0.61551836,0.013555038,0.76498656,2.06E-07,3.56E-07,1.15E-06,3.32E-07,1.23E-07,7.98E-07
519,0.62309397,0.00965868,0.77216944,1.99E-07,3.34E-07,1.07E-06,2.35E-07,1.53E-07,6.25E-07
520,0.630712,0.005734109,0.77938902,1.91E-07,3.11E-07,9.85E-07,1.39E-07,1.83E-07,4.48E-07
521,0.63775191,0.004513738,0.78240309,2.11E-07,3.73E-07,8.05E-07,1.44E-07,1.48E-07,3.57E-07
522,0.64478343,0.003293866,0.78540934,2.32E-07,4.35E-07,6.26E-07,1.48E-07,1.12E-07,2.66E-07
523,0.65352167,0.002653183,0.79221241,1.80E-07,3.62E-07,8.64E-07,3.39E-07,1.09E-07,2.20E-07
524,0.66229554,0.0020094,0.79904049,1.29E-07,2.88E-07,1.11E-06,5.30E-07,1.06E-07,1.73E-07
525,0.67154084,0.001655954,0.80684987,1.14E-07,1.80E-07,8.99E-07,3.57E-07,1.12E-07,2.17E-07
526,0.66725104,0.001301301,0.81468042,1.00E-07,7.16E-08,6.91E-07,1.82E-07,1.19E-07,2.62E-07
527,0.66519951,0.00108782,0.82356724,5.69E-08,1.05E-07,1.06E-06,2.74E-07,1.17E-07,1.86E-06
528,0.66220797,0.000872725,0.83250322,1.36E-08,1.39E-07,1.43E-06,3.67E-07,1.16E-07,3.46E-06
529,0.65847717,0.000738978,0.83662679,1.20E-07,1.26E-07,2.52E-06,4.38E-07,1.66E-07,6.12E-06
530,0.65473338,0.000604892,0.84075604,2.27E-07,1.13E-07,3.63E-06,5.09E-07,2.16E-07,8.78E-06
531,0.66155881,0.000513003,0.84116715,1.37E-07,6.19E-08,2.59E-06,3.89E-07,1.51E-07,4.82E-06
532,0.66838953,0.00042099,0.84157419,4.60E-08,1.06E-08,1.56E-06,2.69E-07,8.45E-08,8.62E-07
533,0.67667403,0.000362003,0.84250331,2.32E-08,4.64E-08,9.96E-07,1.95E-07,1.27E-07,5.49E-07
534,0.6849966,0.000302683,0.8434274,7.26E-11,8.24E-08,4.30E-07,1.20E-07,1.69E-07,2.37E-07
535,0.69309803,0.000259234,0.84430485,2.42E-08,4.67E-08,4.01E-07,2.02E-07,1.61E-07,3.83E-07
536,0.69291686,0.000215574,0.84517844,4.83E-08,1.08E-08,3.71E-07,2.84E-07,1.53E-07,5.29E-07
537,0.69217349,0.000183966,0.84629798,2.43E-08,1.63E-08,4.71E-07,2.28E-07,1.63E-07,2.87E-06
538,0.69049668,0.000152256,0.84741595,7.39E-11,2.17E-08,5.72E-07,1.72E-07,1.73E-07,5.22E-06
539,0.68936994,0.00013065,0.84887628,3.31E-08,1.09E-08,4.19E-07,1.48E-07,1.45E-07,4.95E-06
540,0.68823724,0.00010894,0.85033527,6.62E-08,8.31E-11,2.69E-07,1.24E-07,1.16E-07,4.68E-06
541,0.6845702,9.55E-05,0.85479328,4.27E-08,1.10E-08,4.05E-07,2.64E-07,1.13E-07,2.40E-06
542,0.68085484,8.19E-05,0.85926621,1.90E-08,2.21E-08,5.43E-07,4.04E-07,1.10E-07,1.07E-07
543,0.67572457,7.08E-05,0.86017941,1.03E-07,3.78E-08,4.28E-07,3.18E-07,1.20E-07,7.68E-08
544,0.66964552,5.96E-05,0.86108948,1.88E-07,5.35E-08,3.15E-07,2.32E-07,1.31E-07,4.65E-08
545,0.66497328,5.14E-05,0.86351554,1.42E-07,1.06E-07,3.70E-07,3.63E-07,6.99E-08,2.99E-07
546,0.67347133,4.30E-05,0.86594464,9.61E-08,1.60E-07,4.26E-07,4.93E-07,8.60E-09,5.51E-07
547,0.67972191,4.91E-05,0.86807735,9.07E-08,1.32E-07,8.52E-06,2.67E-06,1.31E-08,1.57E-06
548,0.68692482,5.50E-05,0.87020942,8.53E-08,1.05E-07,1.66E-05,4.85E-06,1.76E-08,2.59E-06
549,0.69422842,6.08E-05,0.87637941,1.02E-07,5.77E-08,7.90E-05,5.93E-06,2.24E-08,1.81E-06
550,0.70156014,6.67E-05,0.8825705,1.19E-07,1.07E-08,0.00014168,7.00E-06,2.72E-08,1.03E-06
551,0.70349736,6.43E-05,0.88908406,7.63E-08,4.61E-08,7.25E-05,6.85E-06,6.98E-08,5.67E-07
552,0.70448084,6.20E-05,0.8955926,3.31E-08,8.14E-08,3.10E-06,6.69E-06,1.12E-07,1.04E-07
553,0.70750262,6.27E-05,0.90584832,4.16E-08,7.69E-08,1.69E-06,5.78E-06,1.35E-07,9.09E-08
554,0.71053286,6.33E-05,0.91615241,5.01E-08,7.23E-08,2.54E-07,4.88E-06,1.56E-07,7.82E-08
555,0.71357642,6.07E-05,0.92446903,7.59E-08,9.95E-08,3.07E-07,4.37E-06,1.55E-07,1.50E-07
556,0.71183523,5.79E-05,0.93280673,1.02E-07,1.27E-07,3.60E-07,3.87E-06,1.54E-07,2.21E-07
557,0.71051196,5.88E-05,0.93904567,1.94E-07,1.45E-07,3.03E-07,4.56E-06,1.52E-07,1.57E-07
558,0.70918305,5.99E-05,0.94529046,2.87E-07,1.64E-07,2.46E-07,5.26E-06,1.48E-07,9.14E-08
559,0.70900925,6.12E-05,0.95376566,2.03E-07,1.28E-07,3.83E-07,4.54E-06,2.53E-07,1.20E-07
560,0.70978554,6.26E-05,0.96228486,1.18E-07,9.13E-08,5.20E-07,3.83E-06,3.59E-07,1.49E-07
561,0.72163216,5.80E-05,0.96834927,7.70E-08,4.57E-08,5.21E-07,5.74E-06,1.07E-06,9.01E-08
562,0.73254397,5.35E-05,0.97442822,3.63E-08,8.50E-11,5.22E-07,7.67E-06,1.79E-06,3.13E-08
563,0.74430102,5.62E-05,0.97877471,9.48E-08,4.30E-08,4.54E-07,1.46E-05,2.26E-06,1.57E-08
564,0.75511526,5.88E-05,0.9831286,1.54E-07,8.59E-08,3.87E-07,2.16E-05,2.73E-06,1.66E-10
565,0.76575249,5.87E-05,0.98572639,8.64E-08,7.49E-08,2.69E-07,2.67E-05,2.08E-06,1.66E-10
566,0.76373109,5.88E-05,0.98832551,1.91E-08,6.38E-08,1.51E-07,3.17E-05,1.45E-06,1.66E-10
567,0.7630856,5.21E-05,0.99261347,4.92E-08,7.06E-08,2.58E-07,4.89E-05,1.02E-06,1.66E-10
568,0.76242585,4.55E-05,0.99691366,7.97E-08,7.76E-08,3.64E-07,6.61E-05,6.05E-07,1.66E-10
569,0.76012995,4.74E-05,0.99845783,1.52E-07,3.88E-08,2.15E-07,9.66E-05,7.53E-07,4.30E-09
570,0.7578266,4.94E-05,1,2.24E-07,9.36E-11,6.51E-08,0.00012712,9.03E-07,8.46E-09
